"File_250827_144738 - RawData"
"Wavelength nm."	"Abs."
350.00	-0.0892
351.00	-0.0899
352.00	-0.0909
353.00	-0.0915
354.00	-0.0931
355.00	-0.0934
356.00	-0.0943
357.00	-0.0948
358.00	-0.0964
359.00	-0.0963
360.00	-0.0964
361.00	-0.0967
362.00	-0.0967
363.00	-0.0978
364.00	-0.0973
365.00	-0.0979
366.00	-0.0978
367.00	-0.0977
368.00	-0.0962
369.00	-0.0934
370.00	-0.0916
371.00	-0.0878
372.00	-0.0828
373.00	-0.0777
374.00	-0.0728
375.00	-0.0675
376.00	-0.0632
377.00	-0.0592
378.00	-0.0556
379.00	-0.0521
380.00	-0.0489
381.00	-0.0461
382.00	-0.0432
383.00	-0.0408
384.00	-0.0390
385.00	-0.0374
386.00	-0.0358
387.00	-0.0342
388.00	-0.0330
389.00	-0.0319
390.00	-0.0308
391.00	-0.0297
392.00	-0.0283
393.00	-0.0271
394.00	-0.0250
395.00	-0.0236
396.00	-0.0216
397.00	-0.0184
398.00	-0.0160
399.00	-0.0130
400.00	-0.0103
401.00	-0.0081
402.00	-0.0056
403.00	-0.0035
404.00	-0.0021
405.00	-0.0006
406.00	0.0007
407.00	0.0013
408.00	0.0020
409.00	0.0028
410.00	0.0031
411.00	0.0033
412.00	0.0034
413.00	0.0036
414.00	0.0039
415.00	0.0040
416.00	0.0043
417.00	0.0049
418.00	0.0047
419.00	0.0049
420.00	0.0049
421.00	0.0050
422.00	0.0052
423.00	0.0051
424.00	0.0056
425.00	0.0057
426.00	0.0056
427.00	0.0058
428.00	0.0061
429.00	0.0061
430.00	0.0062
431.00	0.0060
432.00	0.0058
433.00	0.0062
434.00	0.0065
435.00	0.0061
436.00	0.0059
437.00	0.0060
438.00	0.0064
439.00	0.0062
440.00	0.0063
441.00	0.0064
442.00	0.0064
443.00	0.0063
444.00	0.0063
445.00	0.0061
446.00	0.0065
447.00	0.0064
448.00	0.0058
449.00	0.0062
450.00	0.0060
451.00	0.0060
452.00	0.0061
453.00	0.0059
454.00	0.0061
455.00	0.0058
456.00	0.0057
457.00	0.0056
458.00	0.0057
459.00	0.0054
460.00	0.0053
461.00	0.0053
462.00	0.0051
463.00	0.0051
464.00	0.0047
465.00	0.0042
466.00	0.0042
467.00	0.0041
468.00	0.0037
469.00	0.0040
470.00	0.0034
471.00	0.0035
472.00	0.0034
473.00	0.0033
474.00	0.0029
475.00	0.0031
476.00	0.0027
477.00	0.0027
478.00	0.0025
479.00	0.0025
480.00	0.0027
481.00	0.0025
482.00	0.0025
483.00	0.0022
484.00	0.0022
485.00	0.0020
486.00	0.0022
487.00	0.0018
488.00	0.0022
489.00	0.0018
490.00	0.0021
491.00	0.0019
492.00	0.0019
493.00	0.0019
494.00	0.0017
495.00	0.0017
496.00	0.0017
497.00	0.0018
498.00	0.0018
499.00	0.0016
500.00	0.0016
501.00	0.0017
502.00	0.0017
503.00	0.0015
504.00	0.0016
505.00	0.0017
506.00	0.0018
507.00	0.0017
508.00	0.0017
509.00	0.0019
510.00	0.0018
511.00	0.0018
512.00	0.0017
513.00	0.0017
514.00	0.0016
515.00	0.0016
516.00	0.0019
517.00	0.0019
518.00	0.0019
519.00	0.0020
520.00	0.0019
521.00	0.0020
522.00	0.0019
523.00	0.0017
524.00	0.0020
525.00	0.0022
526.00	0.0021
527.00	0.0022
528.00	0.0022
529.00	0.0023
530.00	0.0024
531.00	0.0025
532.00	0.0024
533.00	0.0023
534.00	0.0026
535.00	0.0026
536.00	0.0025
537.00	0.0024
538.00	0.0025
539.00	0.0030
540.00	0.0029
541.00	0.0028
542.00	0.0029
543.00	0.0029
544.00	0.0028
545.00	0.0028
546.00	0.0031
547.00	0.0029
548.00	0.0029
549.00	0.0028
550.00	0.0026
551.00	0.0025
552.00	0.0024
553.00	0.0024
554.00	0.0023
555.00	0.0023
556.00	0.0020
557.00	0.0020
558.00	0.0020
559.00	0.0019
560.00	0.0017
561.00	0.0018
562.00	0.0018
563.00	0.0018
564.00	0.0016
565.00	0.0015
566.00	0.0016
567.00	0.0011
568.00	0.0011
569.00	0.0007
570.00	0.0003
571.00	0.0004
572.00	0.0002
573.00	-0.0001
574.00	-0.0003
575.00	-0.0006
576.00	-0.0008
577.00	-0.0008
578.00	-0.0007
579.00	-0.0008
580.00	-0.0008
581.00	-0.0009
582.00	-0.0008
583.00	-0.0010
584.00	-0.0011
585.00	-0.0008
586.00	-0.0008
587.00	-0.0007
588.00	-0.0006
589.00	-0.0006
590.00	-0.0008
591.00	-0.0005
592.00	-0.0005
593.00	-0.0006
594.00	-0.0003
595.00	-0.0005
596.00	-0.0005
597.00	-0.0006
598.00	-0.0003
599.00	-0.0003
600.00	-0.0003
601.00	-0.0003
602.00	-0.0003
603.00	0.0000
604.00	-0.0002
605.00	0.0001
606.00	0.0002
607.00	0.0002
608.00	0.0002
609.00	0.0005
610.00	0.0005
611.00	0.0008
612.00	0.0009
613.00	0.0009
614.00	0.0012
615.00	0.0013
616.00	0.0014
617.00	0.0016
618.00	0.0018
619.00	0.0019
620.00	0.0019
621.00	0.0021
622.00	0.0024
623.00	0.0026
624.00	0.0025
625.00	0.0028
626.00	0.0029
627.00	0.0031
628.00	0.0030
629.00	0.0033
630.00	0.0033
631.00	0.0033
632.00	0.0033
633.00	0.0033
634.00	0.0032
635.00	0.0031
636.00	0.0034
637.00	0.0030
638.00	0.0030
639.00	0.0029
640.00	0.0025
641.00	0.0024
642.00	0.0023
643.00	0.0023
644.00	0.0020
645.00	0.0019
646.00	0.0016
647.00	0.0013
648.00	0.0015
649.00	0.0010
650.00	0.0012
651.00	0.0009
652.00	0.0007
653.00	0.0002
654.00	0.0003
655.00	-0.0002
656.00	-0.0002
657.00	-0.0001
658.00	-0.0002
659.00	-0.0004
660.00	-0.0008
661.00	-0.0010
662.00	-0.0009
663.00	-0.0011
664.00	-0.0015
665.00	-0.0013
666.00	-0.0015
667.00	-0.0014
668.00	-0.0016
669.00	-0.0018
670.00	-0.0017
671.00	-0.0020
672.00	-0.0018
673.00	-0.0020
674.00	-0.0021
675.00	-0.0018
676.00	-0.0023
677.00	-0.0023
678.00	-0.0021
679.00	-0.0024
680.00	-0.0023
681.00	-0.0028
682.00	-0.0024
683.00	-0.0026
684.00	-0.0028
685.00	-0.0025
686.00	-0.0026
687.00	-0.0027
688.00	-0.0027
689.00	-0.0027
690.00	-0.0030
691.00	-0.0026
692.00	-0.0028
693.00	-0.0029
694.00	-0.0027
695.00	-0.0027
696.00	-0.0028
697.00	-0.0027
698.00	-0.0027
699.00	-0.0029
700.00	-0.0030
701.00	-0.0026
702.00	-0.0029
703.00	-0.0028
704.00	-0.0027
705.00	-0.0027
706.00	-0.0027
707.00	-0.0027
708.00	-0.0029
709.00	-0.0028
710.00	-0.0027
711.00	-0.0024
712.00	-0.0025
713.00	-0.0025
714.00	-0.0026
715.00	-0.0025
716.00	-0.0030
717.00	-0.0026
718.00	-0.0027
719.00	-0.0030
720.00	-0.0027
721.00	-0.0027
722.00	-0.0029
723.00	-0.0030
724.00	-0.0030
725.00	-0.0028
726.00	-0.0030
727.00	-0.0031
728.00	-0.0029
729.00	-0.0031
730.00	-0.0030
731.00	-0.0034
732.00	-0.0030
733.00	-0.0033
734.00	-0.0031
735.00	-0.0032
736.00	-0.0030
737.00	-0.0027
738.00	-0.0032
739.00	-0.0029
740.00	-0.0031
741.00	-0.0031
742.00	-0.0031
743.00	-0.0033
744.00	-0.0031
745.00	-0.0029
746.00	-0.0030
747.00	-0.0027
748.00	-0.0033
749.00	-0.0031
750.00	-0.0033
751.00	-0.0030
752.00	-0.0035
753.00	-0.0028
754.00	-0.0031
755.00	-0.0028
756.00	-0.0031
757.00	-0.0035
758.00	-0.0032
759.00	-0.0034
760.00	-0.0035
761.00	-0.0031
762.00	-0.0028
763.00	-0.0026
764.00	-0.0027
765.00	-0.0026
766.00	-0.0028
767.00	-0.0028
768.00	-0.0026
769.00	-0.0029
770.00	-0.0028
771.00	-0.0021
772.00	-0.0027
773.00	-0.0025
774.00	-0.0024
775.00	-0.0023
776.00	-0.0026
777.00	-0.0029
778.00	-0.0022
779.00	-0.0027
780.00	-0.0026
781.00	-0.0021
782.00	-0.0026
783.00	-0.0025
784.00	-0.0022
785.00	-0.0017
786.00	-0.0021
787.00	-0.0023
788.00	-0.0022
789.00	-0.0014
790.00	-0.0020
791.00	-0.0022
792.00	-0.0023
793.00	-0.0019
794.00	-0.0019
795.00	-0.0022
796.00	-0.0014
797.00	-0.0018
798.00	-0.0019
799.00	-0.0020
800.00	-0.0010
801.00	-0.0015
802.00	-0.0015
803.00	-0.0013
804.00	-0.0010
805.00	-0.0010
806.00	-0.0015
807.00	-0.0013
808.00	-0.0009
809.00	-0.0008
810.00	-0.0006
811.00	-0.0004
812.00	-0.0009
813.00	-0.0006
814.00	0.0002
815.00	-0.0005
816.00	-0.0009
817.00	-0.0005
818.00	-0.0009
819.00	-0.0009
820.00	-0.0004
821.00	-0.0001
822.00	-0.0004
823.00	0.0002
824.00	-0.0004
825.00	-0.0003
826.00	-0.0008
827.00	-0.0005
828.00	-0.0001
829.00	0.0006
830.00	0.0000
831.00	-0.0007
832.00	-0.0004
833.00	0.0005
834.00	0.0009
835.00	0.0000
836.00	-0.0006
837.00	0.0002
838.00	0.0005
839.00	0.0005
840.00	0.0006
841.00	-0.0015
842.00	0.0013
843.00	0.0005
844.00	-0.0011
845.00	-0.0004
846.00	-0.0002
847.00	0.0003
848.00	0.0001
849.00	-0.0013
850.00	0.0007
851.00	0.0003
852.00	-0.0014
853.00	-0.0008
854.00	-0.0001
855.00	-0.0013
856.00	0.0012
857.00	0.0003
858.00	-0.0009
859.00	0.0038
860.00	0.0023
861.00	-0.0005
862.00	-0.0003
863.00	-0.0019
864.00	-0.0009
865.00	-0.0006
866.00	-0.0018
867.00	0.0022
868.00	0.0001
869.00	0.0040
870.00	-0.0002
871.00	0.0062
872.00	-0.0027
873.00	-0.0015
874.00	0.0039
875.00	0.0044
876.00	0.0000
877.00	-0.0003
878.00	0.0025
879.00	0.0012
880.00	-0.0004
881.00	0.0012
882.00	-0.0002
883.00	-0.0016
884.00	0.0045
885.00	0.0029
886.00	0.0012
887.00	-0.0006
888.00	0.0071
889.00	0.0010
890.00	0.0040
891.00	-0.0042
892.00	-0.0055
893.00	-0.0026
894.00	0.0086
895.00	-0.0101
896.00	-0.0087
897.00	0.0114
898.00	-0.0112
899.00	0.0072
900.00	0.0024
